222
243
239
224
242
224
243
234
226
250
226
240
234
225
247
227
244
243
242
261
248
274
273
270
290
267
287
269
258
279
293
326
307
296
306
278
304
279
284
291
274
284
273
271
281
260
285
268
265
278
254
275
256
262
272
252
281
267
279
285
267
292
272
283
288
270
297
268
285
284
272
294
266
287
285
272
297
273
292
286
277
303
271
292
283
282
300
279
290
281
275
295
272
296
284
284
300
276
293
285
279
291
253
266
289
308
311
275
292
283
276
291
266
291
275
275
287
262
289
267
274
284
264
283
262
270
277
261
280
269
278
284
273
293
274
285
289
268
294
271
280
282
272
286
269
283
282
272
289
264
282
283
264
292
264
280
278
269
286
264
282
274
269
286
267
287
283
280
292
267
290
282
279
289
254
264
275
299
307
272
291
272
275
291
260
287
267
266
280
260
287
262
272
277
256
282
259
265
275
256
278
258
275
287
266
287
267
279
285
266
294
269
278
280
267
286
261
282
280
271
289
260
280
272
269
287
265
285
276
271
292
265
285
276
270
285
257
283
276
280
295
268
292
279
276
294
260
266
245
240
258
296
275
279
266
258
271
253
263
260
256
268
249
262
256
251
263
239
259
246
250
256
233
256
245
248
267
249
274
262
264
269
247
269
254
267
278
263
274
256
267
267
247
265
252
261
265
241
263
242
257
257
242
261
239
257
260
237
261
239
253
252
239
261
241
262
261
249
266
250
263
262
250
252
221
236
270
277
290
257
274
265
259
268
244
265
260
252
269
242
257
247
248
259
237
256
243
240
251
236
252
246
252
266
245
269
255
259
270
247
272
255
261
269
250
263
255
258
266
250
268
247
265
264
253
260
251
265
268
255
267
247
264
273
255
265
250
261
264
252
266
250
267
263
258
277
252
276
268
262
275
245
256
239
262
304
269
287
271
266
277
257
273
268
263
272
252
270
260
259
265
248
265
254
258
259
239
261
252
258
270
251
276
260
272
274
252
278
259
270
276
255
277
260
272
276
261
278
259
271
269
259
280
258
273
273
262
281
256
271
274
257
279
255
275
277
262
282
255
277
275
261
282
257
274
266
265
277
257
276
274
270
285
262
280
275
267
268
233
261
285
290
293
267
282
268
273
278
256
279
261
271
278
258
272
260
273
275
251
271
256
259
268
253
271
255
269
275
266
284
265
281
282
267
279
255
272
270
256
274
253
268
261
245
265
247
258
253
246
263
241
258
258
245
262
237
259
254
245
260
239
256
247
243
260
231
253
244
241
253
231
252
248
249
255
226
251
233
234
220
180
173
181
216
225
196
209
186
190
190
177
197
176
185
191
169
185
167
173
172
156
173
154
163
177
157
178
161
174
180
166
188
161
183
187
165
184
161
184
182
172
186
166
185
183
171
185
165
185
177
175
187
168
181
181
175
190
167
183
178
178
188
167
185
177
177
188
170
186
180
181
192
169
178
174
175
186
165
189
170
185
188
167
189
175
181
173
141
161
184
203
201
175
188
172
178
179
168
182
165
178
177
159
180
154
175
169
161
178
152
172
168
163
178
157
177
183
175
191
167
192
181
173
192
166
181
184
171
190
165
187
181
175
190
163
184
174
177
191
165
185
181
180
186
167
190
171
176
186
172
191
170
180
191
169
187
174
185
194
169
187
169
178
182
167
186
169
182
186
170
191
170
188
185
174
184
154
152
171
188
204
172
186
185
168
186
160
181
178
168
183
158
174
170
159
173
146
162
160
149
166
142
163
156
160
177
155
176
167
170
182
157
178
168
176
180
159
180
162
172
182
158
182
168
176
182
161
179
165
174
183
162
184
167
176
182
166
182
167
178
183
168
184
164
180
179
170
184
163
174
178
156
180
158
174
174
159
176
153
171
172
156
174
135
145
126
133
176
151
164
151
143
156
132
149
141
139
151
126
143
142
138
149
124
143
128
135
141
130
156
148
157
170
159
185
170
176
189
163
180
166
171
179
157
167
152
155
152
138
161
136
150
155
142
161
141
158
163
149
177
147
169
171
164
178
161
185
181
168
189
171
185
182
177
194
166
187
183
175
192
171
192
186
186
199
178
201
191
189
200
181
204
189
177
178
159
212
208
200
204
178
196
186
188
198
178
198
178
188
192
172
186
174
177
185
158
181
157
166
175
154
178
161
169
177
165
187
162
179
178
166
182
164
175
175
163
185
161
181
177
173
183
161
174
177
165
185
161
180
172
173
182
165
181
177
163
184
161
182
181
176
188
164
180
172
177
188
163
184
176
173
181
171
188
173
181
187
169
187
160
161
166
181
218
185
180
183
162
182
164
181
187
163
183
162
174
175
166
177
158
168
163
151
169
149
175
177
156
184
166
180
185
186
191
171
194
189
186
199
170
193
185
185
201
176
192
184
182
199
172
189
180
178
184
172
191
185
177
227
221
185
196
201
194
222
199
215
215
207
205
193
212
208
194
219
197
217
211
204
222
192
216
211
199
211
174
186
208
221
223
194
209
194
191
208
177
199
178
189
194
172
198
185
186
198
178
199
183
189
193
172
192
180
184
204
179
205
190
195
202
183
205
201
245
276
257
291
277
295
300
287
310
286
294
298
280
297
266
280
250
202
217
189
203
199
184
181
173
181
244
259
270
264
280
282
284
309
294
322
323
320
333
314
336
326
330
342
323
339
330
319
321
322
371
354
343
352
330
356
331
335
343
319
342
324
331
334
317
338
315
319
331
306
324
305
309
318
301
328
313
330
335
322
350
332
340
342
331
354
328
346
346
334
354
318
333
333
288
266
227
240
223
197
215
190
211
203
191
213
186
206
198
192
212
186
206
202
224
242
209
238
218
223
235
205
232
217
216
232
208
221
202
185
205
214
245
217
215
219
195
216
193
208
209
186
218
195
203
214
194
221
202
212
217
200
222
200
213
214
203
229
210
223
229
215
236
218
219
232
222
245
215
241
231
228
243
224
247
242
233
251
229
251
241
233
251
231
254
247
246
267
245
264
252
256
266
248
272
258
249
257
241
268
254
260
269
247
269
252
257
260
225
239
253
293
298
274
287
261
269
272
257
278
251
264
267
250
274
250
261
264
245
267
249
269
272
254
279
266
280
282
265
283
264
278
269
260
262
261
253
260
266
253
263
263
267
277
267
273
266
281
284
270
282
256
271
264
258
271
259
273
268
259
272
254
267
272
254
272
243
259
259
249
267
243
263
259
252
265
245
252
245
230
258
275
294
272
262
267
240
266
254
253
262
240
260
247
244
257
239
250
235
239
249
227
246
231
236
249
231
251
241
255
255
246
260
244
256
261
245
260
241
251
255
240
261
241
253
256
244
258
240
253
258
244
259
237
258
256
245
255
237
255
250
243
265
239
258
254
243
257
232
251
248
241
260
236
260
247
250
264
241
250
238
217
237
250
279
259
255
263
236
259
245
251
253
236
257
235
246
250
232
248
231
238
244
223
240
227
239
244
228
252
237
251
256
244
260
239
253
259
248
261
241
251
246
223
242
211
222
227
217
228
203
225
225
231
253
233
255
252
256
265
245
267
257
254
264
239
254
251
246
263
236
262
246
249
262
241
263
245
239
233
235
285
266
268
270
246
263
244
259
257
237
254
236
246
252
230
249
232
244
249
228
248
225
236
240
233
253
236
254
257
248
264
238
260
256
244
257
241
251
252
241
259
234
254
251
245
256
232
253
246
245
259
236
255
253
241
252
238
257
256
250
265
234
253
244
244
259
240
261
259
251
265
245
265
251
249
246
213
258
265
275
271
248
262
248
257
259
243
262
246
260
273
251
267
257
260
265
253
266
241
256
261
243
263
246
266
270
256
279
256
272
272
258
279
255
270
267
260
272
249
268
266
260
279
252
274
269
261
272
251
265
264
257
267
250
271
259
257
272
256
271
260
264
268
246
264
250
259
270
251
265
257
258
269
242
264
244
241
240
207
249
261
274
267
243
257
237
243
250
228
249
236
246
241
231
242
226
239
238
226
241
219
236
238
229
242
228
250
253
245
255
236
255
254
241
260
237
260
250
250
259
234
256
249
249
261
234
257
247
245
261
238
255
242
250
256
234
255
245
251
256
232
257
240
246
254
239
257
242
249
260
230
254
236
248
250
235
256
239
250
256
240
260
243
253
248
223
232
220
273
274
249
257
236
251
247
239
254
232
243
245
237
247
227
251
239
229
243
220
238
231
227
242
221
238
237
238
250
235
251
241
242
256
232
254
244
239
255
237
256
234
244
257
231
248
243
242
258
233
256
233
250
250
234
253
240
245
256
233
255
234
252
251
237
251
241
247
254
234
257
235
253
250
237
247
236
248
246
244
257
235
249
253
242
263
230
247
224
214
267
259
274
261
248
259
233
257
247
237
254
234
251
243
237
249
227
245
237
236
244
224
244
226
237
245
229
254
242
251
263
242
259
242
252
263
240
260
241
258
255
245
259
240
254
257
241
263
239
256
255
239
261
239
256
257
242
261
238
258
255
249
263
241
258
256
248
263
242
255
255
250
259
243
260
253
248
261
241
257
255
257
265
250
261
260
261
266
234
238
227
260
288
264
268
259
258
267
245
266
247
253
262
238
260
242
250
259
234
255
241
249
257
238
256
238
256
265
250
267
255
269
272
256
274
256
267
267
256
275
250
270
272
256
272
246
270
266
246
267
246
266
262
251
271
241
264
257
254
269
244
268
259
253
270
252
266
259
262
277
246
271
261
259
268
246
269
255
261
273
255
268
258
265
271
242
246
224
268
296
270
279
257
268
267
260
267
248
257
265
248
262
246
263
260
246
261
242
259
259
250
269
247
268
274
268
280
261
276
272
267
279
258
274
267
262
277
251
276
265
270
278
256
278
264
266
280
253
273
268
273
282
261
278
267
274
283
266
217
243
276
279
288
269
289
286
283
292
278
295
290
285
300
276
287
258
268
318
298
316
297
294
309
280
298
287
282
303
274
302
282
290
294
272
293
279
282
292
266
294
279
283
303
280
314
293
300
309
290
315
297
309
314
289
319
292
308
313
293
320
291
307
312
297
325
297
310
315
299
322
300
315
312
297
321
298
315
312
304
326
290
315
312
303
325
296
324
310
308
324
300
325
302
289
297
295
343
324
317
326
291
322
300
301
317
292
315
300
303
312
282
287
293
296
290
296
274
289
290
286
297
290
300
293
304
310
289
311
301
303
315
295
311
301
302
313
290
317
299
305
319
296
314
295
312
316
296
312
300
313
317
295
317
298
314
315
303
323
298
309
312
294
311
288
303
310
301
317
298
317
308
286
291
266
320
328
311
321
289
310
302
297
308
290
301
297
293
306
282
297
287
289
298
273
293
275
282
295
273
299
290
297
304
287
306
293
303
304
291
307
294
302
308
292
314
287
306
307
288
305
290
301
301
291
307
289
307
306
286
308
286
304
309
292
310
292
304
304
292
308
288
301
299
292
311
281
311
308
302
314
294
307
305
296
298
262
289
315
322
324
295
311
306
297
311
287
310
295
295
309
289
306
289
296
301
280
296
280
290
295
274
295
282
297
307
291
307
292
306
312
292
310
296
307
308
296
310
293
308
307
297
312
294
311
310
299
319
295
311
311
302
315
302
323
313
304
319
297
320
306
304
323
299
316
305
304
320
297
319
313
309
320
305
315
312
304
300
265
308
331
336
337
308
327
309
314
320
302
321
306
308
316
298
316
295
307
313
293
307
288
299
304
288
310
292
305
304
298
307
292
308
308
296
307
291
309
304
292
306
288
307
299
291
308
289
308
306
298
311
286
303
299
288
307
282
302
299
291
309
287
299
293
291
301
284
298
286
296
307
286
300
294
302
311
289
311
288
282
276
287
326
314
317
315
294
309
291
299
308
282
306
291
296
296
286
299
281
289
293
280
303
278
294
294
285
302
290
305
305
296
308
297
315
308
306
311
299
307
307
304
318
298
316
307
307
317
296
316
309
314
322
307
318
311
312
324
304
331
323
322
331
311
332
317
320
333
310
333
317
324
326
311
326
315
327
330
313
335
317
331
327
304
307
300
342
350
329
334
314
331
330
314
332
308
320
324
313
326
307
322
318
312
320
298
315
315
306
320
301
320
317
317
335
313
330
327
327
330
316
333
329
325
338
317
333
325
330
340
320
336
326
330
341
318
338
328
332
339
322
337
326
331
340
316
337
320
331
334
320
331
317
329
329
313
332
318
331
333
319
341
318
334
340
325
338
313
316
306
313
357
337
341
333
324
337
312
331
326
316
333
309
325
321
316
329
303
321
314
312
325
300
320
309
313
331
306
323
319
322
333
309
334
318
324
334
314
330
320
331
333
314
334
317
333
332
321
336
325
331
338
318
337
322
334
333
320
340
321
340
339
323
341
325
333
336
322
340
314
333
327
318
329
315
329
329
320
336
315
335
332
319
330
309
305
298
336
357
324
331
321
322
331
310
330
317
321
329
311
325
315
316
319
306
316
304
315
315
302
321
306
310
323
302
322
306
318
326
304
320
309
317
320
308
325
305
319
319
307
324
304
318
319
305
325
302
322
317
311
319
301
315
315
307
325
301
321
313
308
322
300
319
314
314
322
302
322
305
305
317
301
322
311
317
323
310
320
315
310
314
275
302
319
334
332
305
325
305
313
320
301
318
305
309
317
304
316
298
309
313
297
312
292
307
300
290
310
295
309
316
304
320
302
324
315
307
323
308
321
321
312
329
302
317
312
306
329
311
328
321
313
327
304
318
310
309
323
304
324
312
311
326
302
318
313
316
327
310
327
319
319
329
304
328
303
315
329
308
328
313
320
332
307
327
305
310
299
291
344
333
332
332
311
322
305
318
320
307
322
302
319
318
304
318
296
315
311
307
316
296
310
308
299
318
300
318
316
312
325
307
325
317
307
322
306
323
318
316
327
306
326
316
316
328
306
325
315
320
328
306
335
317
322
331
306
333
322
318
335
311
328
314
329
333
315
332
314
327
327
308
331
315
329
331
320
337
313
331
331
319
334
302
303
322
344
354
327
336
330
321
336
313
332
323
322
334
313
328
317
316
327
300
325
311
307
322
299
321
313
309
331
312
329
326
330
335
319
334
329
331
334
322
335
320
329
339
315
341
323
328
339
321
334
323
337
340
324
339
325
338
337
325
340
322
335
339
323
341
324
335
336
324
343
320
338
334
323
341
317
336
334
329
343
318
342
332
312
318
299
356
357
341
345
318
338
328
326
340
317
335
323
324
333
314
330
320
320
331
309
329
313
320
329
305
332
316
327
337
317
336
321
334
335
317
336
318
331
333
319
334
325
329
335
319
333
315
333
324
319
330
315
329
328
313
330
308
326
325
315
327
309
325
326
310
333
308
326
326
313
334
307
325
322
320
333
312
331
325
320
335
312
332
312
297
310
331
354
330
326
334
312
334
317
321
330
307
331
313
320
330
308
324
306
316
323
303
317
301
312
316
302
326
313
326
328
318
331
311
339
329
318
334
315
332
329
319
334
315
330
332
319
333
319
333
329
320
342
316
335
334
327
339
319
333
331
328
338
319
338
328
328
343
318
337
328
330
341
319
339
331
336
341
325
341
334
332
331
292
320
348
361
358
331
347
328
335
343
320
337
320
334
337
317
338
318
329
332
313
331
309
321
326
316
330
315
331
326
330
339
317
346
340
333
343
323
341
340
339
347
326
343
342
340
352
332
346
343
340
350
335
347
337
344
352
326
345
341
343
354
337
348
336
341
352
328
344
334
344
345
324
344
329
341
348
327
346
337
341
347
329
340
312
311
328
347
366
337
340
340
326
345
318
337
335
324
342
316
337
335
318
331
310
331
323
318
329
307
327
325
322
336
319
336
330
330
346
327
340
332
332
348
327
338
331
334
342
327
343
330
336
339
323
340
331
333
343
322
343
323
330
343
322
342
328
343
343
326
348
328
340
342
326
346
326
346
346
335
351
334
346
351
332
356
325
330
310
322
367
346
348
336
331
345
320
341
333
327
337
317
326
330
322
338
317
328
324
314
327
312
323
318
322
331
309
334
326
333
341
322
340
328
335
342
326
340
328
335
342
327
337
330
337
338
340
338
347
341
336
336
326
346
331
336
340
325
347
333
333
344
325
349
335
340
346
328
354
343
347
354
334
354
341
347
351
315
322
323
364
377
348
364
339
346
346
322
347
329
336
339
320
346
319
337
329
312
340
310
333
327
319
341
314
330
331
325
353
323
343
338
331
350
323
342
332
329
347
319
347
326
330
342
315
338
328
324
337
318
342
323
324
335
307
333
315
317
331
298
320
312
315
320
304
330
307
307
300
250
252
218
268
293
259
276
216
221
242
227
263
249
279
271
252
274
241
241
241
259
337
350
195
145
215
139
144
218
176
174
207
172
204
201
180
189
187
200
182
186
207
177
208
206
188
183
177
234
