28736
28750
28771
28788
28816
28837
28859
28879
28903
28930
28950
28980
29011
29033
29055
29080
29099
29123
29151
29175
29216
29246
29290
29318
29355
29378
29408
29438
29465
29496
29525
29554
29580
29601
29624
29648
29677
29702
29725
29751
29783
29810
29839
29866
29897
29915
29937
29952
29974
29994
30014
30043
30060
30082
30099
30115
30125
30137
30157
30167
30190
30212
30233
30258
30289
30323
30354
30390
30423
30455
30491
30523
30556
30581
30603
30626
30656
30677
30703
30734
30771
30812
30844
30874
30900
30928
30953
30973
30991
31010
31035
31063
31084
31101
31120
31139
31156
31176
31192
31211
31228
31243
31265
31283
31304
31316
31335
31346
31363
31375
31393
31407
31428
31443
31454
31466
31479
31492
31519
31530
31551
31571
31589
31608
31625
31636
31647
31659
31667
31680
31694
31708
31720
31734
31751
31765
31781
31795
31809
31825
31837
31854
31867
31879
31894
31902
31923
31935
31948
31962
31970
31993
32001
32023
32033
32042
32057
32061
32078
32082
32104
32113
32128
32143
32160
32175
32180
32193
32204
32223
32228
32238
32248
32259
32273
32287
32298
32314
32324
32333
32349
32354
32366
32376
32386
32396
32409
32422
32436
32447
32456
32474
32476
32493
32512
32518
32532
32544
32555
32557
32571
32574
32588
32597
32608
32627
32635
32649
32658
32675
32686
32695
32709
32720
32731
32740
32755
32768
32773
32786
32792
32804
32819
32826
32836
32851
32861
32865
32875
32882
32895
32906
32909
32927
32931
32942
32950
32958
32968
32974
32982
32995
33011
33014
33022
33031
33042
33053
33064
33073
33080
33089
33101
33104
33123
33130
33141
33151
33164
33167
33180
33188
33202
33216
33224
33232
33250
33257
33266
33284
33290
33292
33297
33301
33303
33317
33318
33326
33331
33338
33348
33361
33366
33375
33381
33392
33397
33408
33415
33424
33437
33442
33456
33458
33476
33480
33488
33501
33496
33504
33517
33525
33533
33539
33554
33555
33566
33571
33582
33583
33592
33596
33607
33618
33622
33630
33648
33645
33665
33672
33679
33688
33700
33708
33719
33733
33739
33747
33762
33768
33780
33784
33798
33808
33818
33823
33836
33839
33858
33872
33878
33886
33897
33908
33924
33930
33941
33948
33956
33964
33968
33974
33979
33979
33995
34001
34013
34020
34036
34050
34057
34060
34077
34075
34091
34108
34123
34131
34148
34153
34167
34173
34188
34201
34208
34222
34230
34236
34250
34264
34278
34284
34295
34296
34311
34320
34337
34347
34360
34374
34387
34396
34405
34408
34427
34437
34447
34459
34468
34483
34493
34509
34515
34532
34543
34552
34572
34574
34589
34597
34605
34616
34627
34636
34644
34659
34670
34672
34682
34700
34711
34716
34725
34732
34735
34742
34750
34752
34761
34762
34766
34773
34778
34785
34796
34808
34821
34834
34841
34857
34858
34867
34874
34879
34895
34903
34911
34924
34933
34933
34941
34949
34955
34966
34974
34980
34989
34990
35003
35004
35012
35017
35028
35035
35043
35050
35064
35070
35078
35080
35088
35093
35108
35112
35121
35134
35149
35156
35166
35176
35180
35190
35195
35204
35216
35215
35225
35234
35239
35242
35251
35253
35265
35269
35275
35274
35289
35284
35298
35309
35316
35327
35329
35336
35345
35351
35350
35358
35360
35364
35373
35373
35378
35379
35377
35376
35386
35385
35392
35396
35401
35399
35403
35413
35413
35418
35428
35430
35435
35443
35449
35453
35452
35466
35461
35472
35471
35470
35477
35480
35484
35495
35492
35495
35500
35505
35511
35520
35527
35535
35530
35535
35545
35548
35553
35554
35562
35563
35571
35570
35579
35576
35579
35587
35589
35594
35603
35606
35608
35615
35616
35624
35626
35634
35641
35643
35647
35649
35657
35663
35676
35686
35694
35694
35705
35707
35715
35715
35719
35719
35731
35734
35741
35744
35741
35740
35740
35741
35736
35741
35749
35743
35747
35756
35760
35763
35763
35773
35777
35781
35785
35792
35799
35809
35811
35815
35818
35823
35825
35828
35832
35835
35841
35842
35851
35848
35848
35861
35868
35867
35874
35875
35882
35888
35889
35898
35893
35903
35903
35908
35920
35919
35930
35941
35944
35946
35946
35950
35955
35959
35963
35974
35975
35978
35987
35996
36005
36015
36021
36031
36039
36040
36050
36055
36057
36056
36057
36066
36071
36085
36086
36098
36101
36096
36105
36117
36123
36125
36128
36125
36130
36130
36134
36134
36131
36132
36134
36140
36140
36141
36155
36156
36166
36172
36178
36184
36196
36196
36202
36201
36206
36217
36219
36214
36218
36220
36219
36223
36220
36218
36222
36223
36226
36235
36236
36238
36236
36238
36242
36245
36249
36249
36261
36261
36266
36276
36275
36283
36282
36285
36288
36294
36299
36300
36304
36321
36319
36324
36324
36332
36330
36331
36337
36337
36344
36345
36356
36363
36360
36368
36365
36373
36370
36379
36379
36385
36387
36387
36391
36402
36407
36403
36410
36416
36421
36423
36430
36425
36430
36429
36426
36428
36422
36416
36418
36411
36409
36412
36410
36407
36410
36410
36418
36412
36411
36416
36420
36421
36418
36425
36422
36417
36418
36418
36414
36414
36410
36404
36411
36405
36399
36399
36401
36400
36403
36402
36402
36399
36399
36398
36397
36399
36394
36389
36400
36396
36394
36394
36388
36386
36388
36379
36382
36373
36383
36389
36378
36380
36383
36388
36386
36401
36421
36318
36147
36052
35922
35603
34810
33754
32847
32164
31106
31402
32865
34384
34447
34332
34021
33616
33648
34032
34362
34901
36408
36012
35442
34976
34669
34484
34349
34163
34179
34306
34473
34567
34599
34616
34624
34620
34610
34597
34592
34600
34639
34657
34458
34138
33363
32536
31672
30888
30762
30924
31062
31052
30988
30950
30989
31078
31220
31382
31564
31750
31940
32124
32318
32521
32704
32875
33025
33199
33348
33493
33616
33734
33830
33941
34037
34137
34220
34290
34345
34395
34432
34472
34494
34525
34541
34562
34580
34594
34631
34662
34682
34701
34721
34734
34729
34728
34743
34752
34769
34787
34810
34838
34854
34880
34894
34911
34923
34935
34952
34980
34999
35022
35046
35070
35091
35114
35138
35165
35186
35206
35226
35241
35258
35280
35301
35323
35344
35366
35389
35411
35434
35450
35475
35488
35503
35521
35533
35546
35560
35569
35574
35574
35578
35575
35575
35581
35583
35584
35582
35584
35574
35571
35550
35534
35507
35487
35472
35461
35453
35448
35450
35450
35454
35447
35451
35447
35441
35441
35431
35423
35404
35382
35367
35347
35334
35320
35319
35313
35305
35302
35284
35272
35251
35243
35238
35229
35239
35250
35259
35281
35304
35333
35364
35388
35409
35421
35437
35447
35464
35481
35487
35501
35505
35515
35521
35537
35545
35552
35562
35567
35574
35588
35600
35617
35636
35638
35650
35647
35645
35644
35636
35632
35638
35645
35650
35649
35647
35648
35653
35657
35657
35657
35654
35655
35654
35661
35664
35665
35668
35661
35666
35668
35668
35669
35670
35670
35678
35681
35684
35687
35695
35692
35698
35696
35706
35710
35717
35724
35727
35721
35727
35727
35738
35743
35747
35747
35751
35752
35758
35756
35757
35758
35757
35762
35766
35777
35785
35780
35788
35790
35798
35801
35810
35813
35806
35818
35816
35819
35820
35815
35812
35806
35800
35798
35800
35808
35816
35818
35837
35842
35845
35834
35833
35834
35835
35839
35847
35866
35865
35881
35888
35896
35904
35910
35911
35919
35925
35924
35935
35941
35942
35954
35959
35969
35972
35979
35991
35999
36000
36004
36007
36011
36013
36015
36022
36023
36027
36025
36030
36037
36036
36045
36052
36053
36061
36062
36073
36076
36090
36104
36115
36127
36141
36147
36166
36174
36193
36196
36210
36216
36231
36237
36244
36249
36262
36264
36277
36280
36293
36296
36293
36294
36298
36290
36291
36281
36280
36269
36270
36261
36265
36256
36261
36266
36267
36261
36268
36267
36272
36279
36284
36292
36292
36299
36308
36312
36314
36322
36324
36333
36341
36342
36341
36345
36355
36349
36365
36363
36370
36379
36379
36376
36377
36386
36386
36390
36393
36404
36402
36407
36406
36410
36412
36423
36425
36429
36431
36440
36449
36453
36459
36465
36471
36471
36479
36479
36490
36492
36493
36503
36505
36520
36517
36524
36524
36533
36535
36540
36546
36553
36550
36548
36551
36560
36554
36563
36563
36568
36574
36572
36571
36577
36577
36578
36590
36588
36588
36592
36608
36608
36620
36626
36623
36631
36636
36638
36643
36641
36646
36647
36655
36655
36658
36657
36664
36671
36674
36678
36683
36683
36696
36700
36700
36712
36718
36728
36731
36737
36741
36748
36747
36752
36759
36761
36763
36769
36773
36777
36778
36782
36784
36793
36790
36796
36804
36804
36811
36813
36815
36825
36829
36831
36833
36837
36835
36836
36837
36834
36839
36843
36837
36840
36838
36846
36839
36838
36837
36845
36833
36845
36843
36844
36848
36846
36849
36848
36852
36859
36863
36871
36871
36872
36877
36881
36886
36889
36889
36895
36893
36899
36901
36908
36905
36907
36912
36909
36915
36920
36918
36926
36932
36934
36938
36945
36949
36955
36958
36960
36965
36965
36971
36981
36977
36984
36986
36992
36994
37005
37000
37003
37008
37014
37014
37009
37022
37022
37021
37026
37029
37028
37037
37040
37049
37045
37056
37061
37060
37063
37062
37056
37060
37054
37052
37050
37050
37049
37042
37046
37043
37032
37042
37038
37037
37046
37051
37051
37051
37056
37054
37057
37061
37063
37066
37066
37069
37068
37068
37077
37076
37075
37073
37074
37074
37082
37078
37083
37082
37086
37089
37097
37095
37092
37100
37102
37095
37105
37103
37110
37111
37111
37116
37108
37119
37119
37124
37122
37131
37129
37131
37129
37134
37137
37139
37144
37153
37158
37154
37160
37159
37159
37162
37174
37166
37182
37180
37186
37185
37192
37200
37202
37201
37206
37205
37205
37207
37207
37196
37196
37192
37193
37188
37190
37190
37185
37188
37197
37200
37204
37207
37203
37206
37196
37199
37206
37194
37194
37197
37194
37198
37199
37196
37194
37191
37199
37196
37193
37196
37203
37207
37209
37214
37214
37215
37218
37223
37220
37229
37234
37229
37236
37233
37244
37241
37243
37241
37251
37249
37249
37254
37257
37254
37257
37255
37261
37264
37270
37267
37273
37270
37275
37267
37267
37273
37274
37270
37274
37277
37281
37282
37278
37282
37285
37272
37273
37263
37259
37240
37240
37226
37221
37219
37214
37211
37211
37204
37211
37209
37202
37207
37206
37204
37199
37199
37209
37203
37198
37200
37200
37199
37199
37199
37193
37191
37191
37187
37190
37186
37194
37185
37188
37183
37185
37182
37188
37190
37190
37195
37190
37198
37189
37192
37198
37197
37202
37202
37206
37201
37212
37213
37213
37212
37222
37217
37223
37213
37216
37214
37219
37211
37217
37215
37219
37218
37226
37226
37226
37228
37234
37226
37221
37222
37210
37210
37203
37193
37193
37186
37182
37180
37177
37175
37175
37167
37165
37164
37167
37161
37159
37156
37155
37149
37158
37155
37155
37150
37157
37159
37159
37150
37148
37147
37148
37138
37134
37129
37131
37133
37129
37128
37125
37130
37125
37126
37124
37131
37131
37129
37137
37136
37135
37139
37140
37141
37145
37141
37139
37135
37134
37132
37128
37129
37118
37123
37125
37120
37122
37121
37120
37122
37120
37119
37128
37129
37131
37132
37134
37136
37133
37137
37133
37133
37123
37116
37107
37105
37094
37088
37080
37062
37055
37055
37043
37041
37037
37023
37023
37017
37019
37010
37008
36998
36985
36980
36969
36964
36960
36954
36949
36941
36941
36932
36929
36926
36924
36921
36911
36912
36912
36910
36906
36901
36903
36901
36899
36892
36892
36890
36892
36878
36882
36884
36882
36879
36881
36876
36878
36870
36874
36868
36868
36862
36867
36869
36863
36869
36860
36863
36865
36864
36866
36860
36865
36867
36870
36868
36873
36869
36866
36870
36873
36868
36878
36876
36879
36881
36885
36881
36881
36882
36874
36861
36849
36841
36835
36824
36811
36802
36792
36786
36778
36774
36767
36764
36758
36760
36758
36747
36745
36743
36733
36736
36738
36733
36730
36720
36716
36713
36710
36699
36699
36692
36686
36688
36681
36677
36670
36666
36656
36657
36659
36664
36656
36662
36658
36655
36651
36654
36650
36652
36653
36647
36650
36643
36645
36640
36644
36645
36651
36645
36656
36647
36653
36643
36649
36654
36652
36650
36650
36655
36655
36653
36657
36655
36653
36660
36661
36661
36667
36667
36671
36661
36666
36668
36670
36677
36672
36678
36678
36673
36668
36663
36662
36656
36654
36647
36640
36632
36622
36626
36613
36619
36621
36613
36607
36610
36603
36600
36600
36593
36599
36591
36595
36587
36586
36576
36582
36578
36571
36574
36571
36568
36571
36558
36560
36554
36562
36553
36554
36546
36554
36550
36551
36551
36559
36552
36561
36559
36552
36559
36557
36561
36567
36564
36564
36559
36565
36567
36571
36568
36570
36576
36578
36577
36586
36580
36583
36584
36586
36580
36591
36590
36595
36589
36594
36590
36599
36599
36603
36609
36609
36608
36607
36613
36618
36610
36620
36608
36617
36609
36605
36609
36613
36613
36614
36610
36604
36595
36591
36586
36574
36576
36576
36575
36570
36571
36573
36567
36571
36573
36572
36564
36568
36553
36554
36547
36552
36549
36553
36550
36551
36550
36547
36544
36541
36533
36528
36531
36529
36525
36530
36528
36529
36533
36526
36524
36531
36528
36532
36534
36536
36543
36540
36536
36548
36550
36550
36543
36553
36551
36557
36556
36563
36556
36563
36556
36560
36561
36571
36566
36580
36572
36586
36587
36596
36600
36601
36599
36605
36613
36616
36617
36628
36624
36628
36623
36626
36628
36620
36620
36617
36621
36621
36610
36611
36604
36610
36602
36614
36601
36614
36607
36614
36604
36618
36611
36613
36615
36624
36618
36625
36630
36629
36631
36635
36632
36629
36623
36628
36627
36627
36624
36630
36627
36631
36628
36629
36628
36636
36635
36636
36635
36643
36640
36649
36647
36659
36659
36665
36664
36668
36671
36680
36682
36691
36689
36698
36701
36708
36715
36717
36727
36727
36721
36725
36725
36721
36728
36732
36727
36725
36730
36743
36740
36749
36756
36761
36759
36767
36762
36764
36760
36768
36761
36769
36768
36766
36771
36768
36767
36774
36772
36768
36769
36764
36762
36767
36764
36765
36765
36769
36774
36773
36776
36775
36775
36781
36779
36779
36782
36785
36783
36785
36787
36795
36797
36798
36806
36802
36812
36812
36819
36822
36824
36830
36827
36836
36840
36839
36845
36853
36852
36857
36858
36862
36865
36867
36873
36878
36885
36886
36885
36891
36895
36895
36905
36912
36916
36925
36922
36924
36926
36938
36938
36935
36937
36937
36937
36938
36937
36935
36932
36931
36934
36937
36935
36938
36935
36944
36952
36946
36956
36961
36958
36963
36965
36972
36972
36976
36982
36985
36985
36976
36980
36983
36981
36986
36992
36990
36993
36996
37003
37001
37000
37005
37009
37004
37011
37011
37021
37029
37025
37034
37044
37053
37056
37058
37062
37071
37068
37068
37077
37080
37085
37085
37088
37096
37094
37098
37105
37105
37111
37114
37116
37121
37124
37121
37126
37141
37153
37166
37169
37173
37170
37165
37165
37159
37150
37143
37144
37144
37144
37141
37145
37144
37146
37148
37156
37157
37160
37165
37164
37160
37170
37173
37178
37175
37177
37183
37178
37179
37181
37181
37185
37190
37188
37192
37189
37191
37190
37195
37196
37203
37196
37200
37197
37207
37208
37215
37218
37221
37223
37231
37226
37233
37233
37242
37241
37246
37249
37252
37254
37258
37263
37261
37260
37263
37269
37270
37274
37269
37270
37278
37274
37281
37285
37285
37289
37297
37293
37293
37297
37304
37306
37315
37304
37309
37304
37307
37297
37294
37296
37295
37291
37292
37286
37288
37286
37291
37288
37291
37287
37296
37291
37297
37294
37296
37298
37298
37299
37297
37297
37299
37296
37298
37298
37308
37310
37302
37301
37301
37308
37313
37308
37314
37308
37308
37309
37312
37316
37323
37318
37316
37319
37322
37319
37323
37319
37320
37320
37324
37322
37324
37325
37335
37331
37332
37338
37340
37344
37348
37345
37344
37351
37345
37348
37346
37348
37357
37357
37359
37366
37367
37371
37368
37373
37379
37382
37381
37381
37376
37376
37372
37365
37364
37364
37357
37358
37360
37360
37364
37362
37368
37369
37367
37373
37375
37376
37378
37378
37379
37380
37386
37390
37386
37388
37394
37395
37390
37383
37392
37389
37397
37381
37391
37384
37394
37394
37401
37401
37400
37408
37407
37402
37406
37406
37412
37409
37414
37411
37414
37417
37412
37414
37418
37422
37421
37428
37431
37428
37439
37432
37440
37440
37445
37440
37451
37451
37456
37453
37456
37459
37461
37468
37470
37467
37478
37479
37475
37474
37479
37468
37474
37465
37465
37452
37456
37448
37443
37440
37448
37443
37450
37450
37452
37451
37453
37454
37457
37453
37448
37456
37455
37453
37454
37452
37450
37454
37451
37454
37452
37450
37454
37449
37453
37447
37447
37447
37450
37446
37448
37442
37451
37449
37452
37449
37455
37452
37457
37462
37468
37458
37466
37464
37474
37468
37472
37468
37474
37475
37476
37479
37476
37480
37492
37484
37488
37490
37491
37489
37495
37492
37500
37503
37504
37508
37513
37515
37517
37529
37532
37535
37537
37536
37535
37526
37527
37521
37520
37508
37505
37503
37508
37500
37498
37499
37495
37491
37489
37490
37487
37478
37477
37477
37476
37472
37466
37476
37476
37466
37457
37456
37455
37458
37462
37462
37462
37456
37460
37456
37453
37453
37446
37447
37445
37445
37447
37450
37443
37448
37444
37436
37446
37447
37437
37443
37441
37446
37444
37441
37443
37438
37441
37444
37447
37445
37448
37448
37454
37461
37464
37464
37462
37464
37472
37466
37466
37464
37466
37477
37474
37477
37478
37481
37480
37480
37479
37485
37485
37485
37478
37475
37465
37465
37450
37443
37441
37436
37442
37438
37440
37442
37432
37435
37424
37418
37416
37409
37413
37406
37412
37402
37398
37396
37401
37392
37388
37383
37382
37382
37376
37374
37372
37370
37369
37364
37359
37358
37363
37362
37365
37362
37361
37356
37362
37349
37353
37349
37350
37352
37356
37346
37352
37349
37350
37354
37352
37354
37356
37355
37356
37352
37360
37356
37355
37355
37350
37350
37349
37344
37348
37350
37351
37351
37355
37351
37359
37355
37361
37361
37360
37356
37359
37364
37363
37359
37355
37344
37341
37336
37330
37324
37315
37320
37315
37307
37306
37302
37299
37300
37294
37285
37286
37285
37285
37278
37280
37279
37269
37261
37271
37264
37259
37256
37252
37254
37246
37238
37241
37241
37240
37235
37231
37229
37233
37224
37229
37220
37224
37224
37221
37210
37217
37222
37215
37219
37219
37217
37219
37221
37226
37229
37239
37233
37232
37239
37238
37234
37235
37237
37244
37236
37238
37237
37242
37234
37237
37243
37243
37234
37240
37233
37240
37235
37238
37237
37239
37241
37246
37235
37235
37233
37231
37223
37222
37203
37205
37196
37188
37183
37179
37169
37173
37163
37169
37163
37164
37158
37165
37156
37158
37152
37156
37153
37160
37147
37151
37140
37136
37133
37128
37116
37116
37109
37109
37098
37103
37093
37092
37090
37089
37087
37080
37073
37083
37082
37085
37083
37092
37090
37093
37087
37092
37089
37096
37092
37091
37093
37097
37088
37087
37083
37091
37085
37082
37084
37081
37078
37077
37077
37083
37082
37082
37083
37081
37091
37089
37088
37081
37077
37078
37076
37078
37080
37083
37076
37078
37076
37072
37071
37063
37056
37059
37047
37037
37032
37027
37019
37018
37016
37010
37011
37013
37013
37007
37007
37002
36998
36993
36988
36994
36984
36984
36982
36977
36978
36971
36965
36967
36954
36952
36949
36957
36948
36945
36947
36945
36944
36943
36939
36943
36942
36946
36939
36942
36940
36952
36943
36944
36936
36941
36943
36950
36946
36950
36948
36951
36947
36953
36944
36957
36955
36955
36959
36958
36958
36958
36959
36961
36963
36967
36973
36973
36976
36979
36984
36987
36991
36988
36995
36993
36996
36998
36989
36990
36982
36977
36974
36968
36954
36952
36941
36945
36938
36932
36936
36939
36931
36928
36925
36926
36921
36927
36921
36914
36922
36918
36912
36911
36908
36901
36904
36902
36892
36890
36890
36891
36882
36882
36881
36882
36877
36878
36872
36872
36866
36874
36871
36882
36875
36879
36876
36878
36873
36879
36873
36873
36868
36878
36877
36875
36874
36879
36871
36876
36873
36876
36881
36884
36878
36882
36879
36884
36881
36884
36885
36888
36888
36889
36896
36897
36894
36899
36902
36903
36901
36902
36905
36900
36896
36899
36890
36887
36876
36871
36856
36852
36850
36853
36845
36853
36850
36852
36853
36855
36848
36843
36848
36847
36842
36838
36837
36843
36835
36831
36829
36824
36827
36826
36822
36825
36818
36815
36818
36815
36812
36817
36817
36822
36823
36825
36824
36827
36830
36825
36834
36840
36835
36842
36844
36852
36847
36857
36853
36857
36853
36864
36860
36864
36863
36867
36863
36868
36866
36874
36870
36870
36872
36874
36880
36881
36883
36882
36893
36895
36898
36904
36905
36911
36911
36911
36915
36925
36922
36919
36921
36916
36913
36904
36902
36901
36887
36889
36883
36883
36877
36886
36878
36877
36880
36880
36881
36884
36879
36882
36885
36876
36884
36881
36883
36883
36883
36881
36876
36883
36878
36883
36880
36875
36874
36880
36877
36884
36880
36886
36885
36886
36891
36892
36892
36899
36902
36902
36900
36904
36905
36905
36898
36897
36903
36908
36906
36913
36911
36921
36918
36930
36923
36928
36937
36936
36938
36944
36941
36953
36943
36947
36946
36953
36958
36960
36965
36975
36979
36990
36988
36995
36993
36997
36989
36993
36984
36992
36976
36980
36966
36968
36965
36965
36966
36971
36967
36974
36977
36986
36983
36992
36988
36991
36983
36985
36971
36978
36977
36976
36967
36973
36972
36972
36973
36976
36972
36972
36966
36975
36966
36973
36965
36968
36968
36974
36975
36981
36975
36983
36981
36982
36983
36988
36984
36987
36992
36995
36993
36996
36999
36999
37000
37004
37009
37014
37016
37023
37023
37029
37029
37028
37027
37033
37032
37037
37034
37043
37044
37051
37049
37052
37053
37060
37056
37060
37064
37066
37062
37062
37057
37053
37044
37043
37040
37038
37035
37032
37027
37033
37030
37038
37030
37035
37038
37036
37037
37043
37036
37043
37042
37044
37048
37043
37042
37044
37040
37043
37036
37038
37032
37033
37033
37035
37028
37032
37032
37039
37035
37039
37041
37046
37049
37056
37047
37054
37057
37064
37065
37067
37066
37070
37066
37070
37069
37071
37066
37064
37061
37064
37068
37071
37065
37075
37067
37074
37073
37077
37078
37087
37081
37086
37087
37095
37095
37092
37092
37092
37097
37084
37087
37080
37072
37063
37053
37046
37038
37029
37024
37022
37017
37025
37019
37019
37016
37027
37020
37028
37025
37016
37015
37025
37016
37015
37016
37015
37014
37008
37005
37001
37002
37001
36991
36998
36987
36989
36980
36980
36980
36980
36979
36984
36980
36979
36975
36979
36972
36976
36973
36977
36968
36977
36970
36968
36966
36963
36969
36961
36970
36970
36967
36975
36975
36979
36980
36981
36982
36989
36987
36985
36992
36987
36983
36994
36991
36998
37002
37002
37009
37013
37012
37009
37001
37004
36991
36991
36980
36979
36971
36960
36951
36947
36949
36941
36938
36939
36940
36933
36926
36921
36928
36922
36917
36925
36918
36924
36914
36911
36910
36904
36900
36900
36892
36884
36877
36872
36865
36855
36848
36847
36839
36837
36827
36831
36821
36816
36805
36810
36796
36787
36783
36782
36780
36775
36776
36783
36780
36783
36786
36779
36781
36777
36761
36747
36742
36740
36753
36785
36661
36873
31537
26891
20501
14638
10515
7569
5458
4197
3496
2884
2297
1836
1525
1326
1187
1106
1042
1000
962
927
884
846
797
763
746
729
725
721
